# tijd (s), versnelling (m/s^2)
0.000000000000000000e+00,8.604728585088991001e-04
5.002084201750729361e-03,8.778190160653528843e-04
1.000416840350145872e-02,8.955139504330892350e-04
1.500625260525218808e-02,9.135646376885608747e-04
2.000833680700291745e-02,9.319781919450826312e-04
2.501042100875364854e-02,9.507618680231624082e-04
3.001250521050437617e-02,9.699230641701294189e-04
3.501458941225510380e-02,9.894693248296043860e-04
4.001667361400583489e-02,1.009408343461890055e-03
4.501875781575656599e-02,1.029747965415709742e-03
5.002084201750729708e-02,1.050496190852663906e-03
5.502292621925802124e-02,1.071661177724791926e-03
6.002501042100875234e-02,1.093251244806107188e-03
6.502709462275947649e-02,1.115274874779402211e-03
7.002917882451020759e-02,1.137740717378532595e-03
7.503126302626093869e-02,1.160657592587613579e-03
8.003334722801166978e-02,1.184034493897589101e-03
8.503543142976240088e-02,1.207880591621411735e-03
9.003751563151313198e-02,1.232205236268298434e-03
9.503959983326386307e-02,1.257017961978524646e-03
1.000416840350145942e-01,1.282328490018938517e-03
1.050437682367653114e-01,1.308146732340831472e-03
1.100458524385160425e-01,1.334482795200494327e-03
1.150479366402667736e-01,1.361346982843795322e-03
1.200500208420175047e-01,1.388749801255354487e-03
1.250521050437682358e-01,1.416701961973516714e-03
1.300541892455189530e-01,1.445214385971893773e-03
1.350562734472696980e-01,1.474298207608401579e-03
1.400583576490204152e-01,1.503964778642975179e-03
1.450604418507711602e-01,1.534225672324400535e-03
1.500625260525218774e-01,1.565092687547696426e-03
1.550646102542726223e-01,1.596577853082779830e-03
1.600666944560233396e-01,1.628693431875320946e-03
1.650687786577740568e-01,1.661451925420736556e-03
1.700708628595248018e-01,1.694866078212306374e-03
1.750729470612755190e-01,1.728948882264376256e-03
1.800750312630262640e-01,1.763713581711560952e-03
1.850771154647769812e-01,1.799173677484693394e-03
1.900791996665277261e-01,1.835342932064724887e-03
1.950812838682784434e-01,1.872235374315419677e-03
2.000833680700291883e-01,1.909865304395545835e-03
2.050854522717799056e-01,1.948247298751793009e-03
2.100875364735306228e-01,1.987396215193058466e-03
2.150896206752813677e-01,2.027327198047065068e-03
2.200917048770320850e-01,2.068055683400279142e-03
2.250937890787828299e-01,2.109597404421860965e-03
2.300958732805335472e-01,2.151968396772591541e-03
2.350979574822842921e-01,2.195185004099479975e-03
2.401000416840350093e-01,2.239263883617024619e-03
2.451021258857857266e-01,2.284222011775912525e-03
2.501042100875364715e-01,2.330076690019785169e-03
2.551062942892872165e-01,2.376845550630924363e-03
2.601083784910379060e-01,2.424546562665770826e-03
2.651104626927886510e-01,2.473198037980555569e-03
2.701125468945393959e-01,2.522818637348151708e-03
2.751146310962901409e-01,2.573427376666688384e-03
2.801167152980408304e-01,2.625043633260288906e-03
2.851187994997915753e-01,2.677687152272940994e-03
2.901208837015423203e-01,2.731378053155675625e-03
2.951229679032930098e-01,2.786136836247914052e-03
3.001250521050437547e-01,2.841984389453112211e-03
3.051271363067944997e-01,2.898941995009425045e-03
3.101292205085452447e-01,2.957031336355610187e-03
3.151313047102959342e-01,3.016274505092574748e-03
3.201333889120466791e-01,3.076694008040833234e-03
3.251354731137974241e-01,3.138312774394170189e-03
3.301375573155481136e-01,3.201154162969507139e-03
3.351396415172988585e-01,3.265241969553354592e-03
3.401417257190496035e-01,3.330600434344607556e-03
3.451438099208003485e-01,3.397254249494004175e-03
3.501458941225510380e-01,3.465228566739750066e-03
3.551479783243017829e-01,3.534549005139577243e-03
3.601500625260525279e-01,3.605241658898599658e-03
3.651521467278032174e-01,3.677333105292930702e-03
3.701542309295539623e-01,3.750850412688571268e-03
3.751563151313047073e-01,3.825821148654844159e-03
3.801583993330554523e-01,3.902273388172174031e-03
3.851604835348061417e-01,3.980235721933156855e-03
3.901625677365568867e-01,4.059737264736329107e-03
3.951646519383076317e-01,4.140807663971513009e-03
4.001667361400583767e-01,4.223477108195950250e-03
4.051688203418090661e-01,4.307776335799834259e-03
4.101709045435598111e-01,4.393736643760080482e-03
4.151729887453105561e-01,4.481389896480878800e-03
4.201750729470612455e-01,4.570768534719520625e-03
4.251771571488119905e-01,4.661905584595643637e-03
4.301792413505627355e-01,4.754834666682202816e-03
4.351813255523134805e-01,4.849590005176077426e-03
4.401834097540641699e-01,4.946206437146155079e-03
4.451854939558149149e-01,5.044719421856531938e-03
4.501875781575656599e-01,5.145165050162242570e-03
4.551896623593163493e-01,5.247580053974869665e-03
4.601917465610670943e-01,5.352001815795124490e-03
4.651938307628178393e-01,5.458468378309256491e-03
4.701959149645685843e-01,5.567018454045945773e-03
4.751979991663192737e-01,5.677691435090142201e-03
4.802000833680700187e-01,5.790527402850112818e-03
4.852021675698207637e-01,5.905567137873684279e-03
4.902042517715714531e-01,6.022852129709290597e-03
4.952063359733221981e-01,6.142424586807733108e-03
5.002084201750729431e-01,6.264327446459188285e-03
5.052105043768236881e-01,6.388604384761116181e-03
5.102125885785744330e-01,6.515299826611436855e-03
5.152146727803251780e-01,6.644458955721107944e-03
5.202167569820758120e-01,6.776127724640832427e-03
5.252188411838265569e-01,6.910352864794909108e-03
5.302209253855773019e-01,7.047181896516246241e-03
5.352230095873280469e-01,7.186663139075359120e-03
5.402250937890787919e-01,7.328845720696169908e-03
5.452271779908295368e-01,7.473779588550979493e-03
5.502292621925802818e-01,7.621515518726660297e-03
5.552313463943309158e-01,7.772105126153894261e-03
5.602334305960816607e-01,7.925600874490273257e-03
5.652355147978324057e-01,8.082056085948568364e-03
5.702375989995831507e-01,8.241524951060341664e-03
5.752396832013338956e-01,8.404062538364939772e-03
5.802417674030846406e-01,8.569724804013542294e-03
5.852438516048353856e-01,8.738568601277174261e-03
5.902459358065860195e-01,8.910651689947406834e-03
5.952480200083367645e-01,9.086032745617957096e-03
6.002501042100875095e-01,9.264771368834762849e-03
6.052521884118382545e-01,9.446928094101685047e-03
6.102542726135889994e-01,9.632564398728444069e-03
6.152563568153397444e-01,9.821742711506958878e-03
6.202584410170904894e-01,1.001452642120155036e-02
6.252605252188411233e-01,1.021097988483803988e-02
6.302626094205918683e-01,1.041116843577608551e-02
6.352646936223426133e-01,1.061515839154874782e-02
6.402667778240933583e-01,1.082301706145219304e-02
6.452688620258441032e-01,1.103481275386850903e-02
6.502709462275948482e-01,1.125061478330335527e-02
6.552730304293455932e-01,1.147049347711989221e-02
6.602751146310962271e-01,1.169452018194971042e-02
6.652771988328469721e-01,1.192276726976083771e-02
6.702792830345977171e-01,1.215530814356186214e-02
6.752813672363484621e-01,1.239221724272149792e-02
6.802834514380992070e-01,1.263357004788092687e-02
6.852855356398499520e-01,1.287944308543655624e-02
6.902876198416006970e-01,1.312991393156979700e-02
6.952897040433513309e-01,1.338506121579953814e-02
7.002917882451020759e-01,1.364496462403250177e-02
7.052938724468528209e-01,1.390970490108605837e-02
7.102959566486035659e-01,1.417936385265686217e-02
7.152980408503543108e-01,1.445402434670842000e-02
7.203001250521050558e-01,1.473377031424973581e-02
7.253022092538558008e-01,1.501868674947629857e-02
7.303042934556064347e-01,1.530885970924431190e-02
7.353063776573571797e-01,1.560437631184767929e-02
7.403084618591079247e-01,1.590532473506742206e-02
7.453105460608586696e-01,1.621179421346133701e-02
7.503126302626094146e-01,1.652387503486191928e-02
7.553147144643601596e-01,1.684165853604942600e-02
7.603167986661109046e-01,1.716523709756603497e-02
7.653188828678615385e-01,1.749470413763668658e-02
7.703209670696122835e-01,1.783015410516138738e-02
7.753230512713630285e-01,1.817168247174281992e-02
7.803251354731137734e-01,1.851938572271277783e-02
7.853272196748645184e-01,1.887336134711994559e-02
7.903293038766152634e-01,1.923370782664126505e-02
7.953313880783660084e-01,1.960052462337794760e-02
8.003334722801167533e-01,1.997391216649741993e-02
8.053355564818673873e-01,2.035397183768098209e-02
8.103376406836181323e-01,2.074080595533719235e-02
8.153397248853688772e-01,2.113451775754006390e-02
8.203418090871196222e-01,2.153521138365098800e-02
8.253438932888703672e-01,2.194299185458237905e-02
8.303459774906211122e-01,2.235796505166150541e-02
8.353480616923718571e-01,2.278023769405173107e-02
8.403501458941224911e-01,2.320991731468870917e-02
8.453522300958732361e-01,2.364711223468886347e-02
8.503543142976239810e-01,2.409193153618691477e-02
8.553563984993747260e-01,2.454448503355951411e-02
8.603584827011254710e-01,2.500488324299207643e-02
8.653605669028762160e-01,2.547323735034557821e-02
8.703626511046269609e-01,2.594965917728065535e-02
8.753647353063775949e-01,2.643426114559633416e-02
8.803668195081283399e-01,2.692715623974113390e-02
8.853689037098790848e-01,2.742845796745453299e-02
8.903709879116298298e-01,2.793828031849786286e-02
8.953730721133805748e-01,2.845673772143321456e-02
9.003751563151313198e-01,2.898394499841125405e-02
9.053772405168820647e-01,2.952001731792790185e-02
9.103793247186326987e-01,3.006507014551252840e-02
9.153814089203834437e-01,3.061921919230998004e-02
9.203834931221341886e-01,3.118258036152106449e-02
9.253855773238849336e-01,3.175526969266668359e-02
9.303876615256356786e-01,3.233740330364300031e-02
9.353897457273864235e-01,3.292909733053624860e-02
9.403918299291371685e-01,3.353046786516754307e-02
9.453939141308878025e-01,3.414163089034052967e-02
9.503959983326385474e-01,3.476270221276649142e-02
9.553980825343892924e-01,3.539379739364365701e-02
9.604001667361400374e-01,3.603503167687048536e-02
9.654022509378907824e-01,3.668651991487496822e-02
9.704043351396415273e-01,3.734837649204492127e-02
9.754064193413922723e-01,3.802071524574731493e-02
9.804085035431429063e-01,3.870364938492792950e-02
9.854105877448936512e-01,3.939729140628623477e-02
9.904126719466443962e-01,4.010175300802330117e-02
9.954147561483951412e-01,4.081714500116553207e-02
1.000416840350145886e+00,4.154357721846996948e-02
1.005418924551896520e+00,4.228115842092174115e-02
1.010421008753647376e+00,4.302999620183853291e-02
1.015423092955398010e+00,4.379019688860141812e-02
1.020425177157148866e+00,4.456186544203680905e-02
1.025427261358899500e+00,4.534510535347832660e-02
1.030429345560650356e+00,4.614001853954404625e-02
1.035431429762400990e+00,4.694670523466840106e-02
1.040433513964151624e+00,4.776526388143540608e-02
1.045435598165902480e+00,4.859579101876435048e-02
1.050437682367653114e+00,4.943838116800561289e-02
1.055439766569403970e+00,5.029312671701127724e-02
1.060441850771154604e+00,5.116011780224979238e-02
1.065443934972905460e+00,5.203944218904304336e-02
1.070446019174656094e+00,5.293118515000803936e-02
1.075448103376406728e+00,5.383542934179515876e-02
1.080450187578157584e+00,5.475225468021976960e-02
1.085452271779908218e+00,5.568173821389219014e-02
1.090454355981659074e+00,5.662395399645860083e-02
1.095456440183409708e+00,5.757897295757145179e-02
1.100458524385160564e+00,5.854686277271741596e-02
1.105460608586911198e+00,5.952768773203617053e-02
1.110462692788661832e+00,6.052150860827335693e-02
1.115464776990412687e+00,6.152838252401618413e-02
1.120466861192163321e+00,6.254836281836960443e-02
1.125468945393914177e+00,6.358149891323817970e-02
1.130471029595664811e+00,6.462783617938516745e-02
1.135473113797415667e+00,6.568741580244998046e-02
1.140475197999166301e+00,6.676027464911020448e-02
1.145477282200916935e+00,6.784644513358378815e-02
1.150479366402667791e+00,6.894595508467270262e-02
1.155481450604418425e+00,7.005882761355673727e-02
1.160483534806169281e+00,7.118508098255386940e-02
1.165485619007919915e+00,7.232472847506792035e-02
1.170487703209670771e+00,7.347777826695353620e-02
1.175489787411421405e+00,7.464423329953114028e-02
1.180491871613172039e+00,7.582409115449369186e-02
1.185493955814922895e+00,7.701734393094882003e-02
1.190496040016673529e+00,7.822397812484765955e-02
1.195498124218424385e+00,7.944397451105500441e-02
1.200500208420175019e+00,8.067730802831840631e-02
1.205502292621925875e+00,8.192394766739996559e-02
1.210504376823676509e+00,8.318385636263390948e-02
1.215506461025427143e+00,8.445699088717946446e-02
1.220508545227177999e+00,8.574330175223669748e-02
1.225510629428928633e+00,8.704273311049602613e-02
1.230512713630679489e+00,8.835522266409351344e-02
1.235514797832430123e+00,8.968070157734044090e-02
1.240516882034180979e+00,9.101909439449905326e-02
1.245518966235931613e+00,9.237031896287095645e-02
1.250521050437682247e+00,9.373428636146488580e-02
1.255523134639433103e+00,9.511090083550582941e-02
1.260525218841183737e+00,9.650005973704321727e-02
1.265527303042934593e+00,9.790165347191345790e-02
1.270529387244685227e+00,9.931556545330212649e-02
1.275531471446436083e+00,1.007416720621493456e-01
1.280533555648186717e+00,1.021798426146300343e-01
1.285535639849937350e+00,1.036299393369361360e-01
1.290537724051688206e+00,1.050918173475754447e-01
1.295539808253438840e+00,1.065653246473940302e-01
1.300541892455189696e+00,1.080503021175175382e-01
1.305543976656940330e+00,1.095465835253932041e-01
1.310546060858691186e+00,1.110539955391055128e-01
1.315548145060441820e+00,1.125723577501199779e-01
1.320550229262192454e+00,1.141014827046000490e-01
1.325552313463943310e+00,1.156411759434233105e-01
1.330554397665693944e+00,1.171912360510091455e-01
1.335556481867444800e+00,1.187514547130537057e-01
1.340558566069195434e+00,1.203216167832486388e-01
1.345560650270946290e+00,1.219015003590450952e-01
1.350562734472696924e+00,1.234908768665027162e-01
1.355564818674447558e+00,1.250895111542475735e-01
1.360566902876198414e+00,1.266971615965402365e-01
1.365568987077949048e+00,1.283135802054371777e-01
1.370571071279699904e+00,1.299385127520082672e-01
1.375573155481450538e+00,1.315716988965503209e-01
1.380575239683201394e+00,1.332128723277189175e-01
1.385577323884952028e+00,1.348617609104758031e-01
1.390579408086702662e+00,1.365180868427317007e-01
1.395581492288453518e+00,1.381815668205394754e-01
1.400583576490204152e+00,1.398519122116738123e-01
1.405585660691955008e+00,1.415288292374117518e-01
1.410587744893705642e+00,1.432120191623059147e-01
1.415589829095456498e+00,1.449011784917247359e-01
1.420591913297207132e+00,1.465959991769095194e-01
1.425593997498957766e+00,1.482961688272825262e-01
1.430596081700708622e+00,1.500013709297172149e-01
1.435598165902459256e+00,1.517112850744650465e-01
1.440600250104210112e+00,1.534255871874149746e-01
1.445602334305960746e+00,1.551439497683426427e-01
1.450604418507711602e+00,1.568660421347928269e-01
1.455606502709462236e+00,1.585915306712183392e-01
1.460608586911212869e+00,1.603200790829896749e-01
1.465610671112963725e+00,1.620513486548699478e-01
1.470612755314714359e+00,1.637849985135410302e-01
1.475614839516465215e+00,1.655206858937545156e-01
1.480616923718215849e+00,1.672580664076682155e-01
1.485619007919966705e+00,1.689967943169242703e-01
1.490621092121717339e+00,1.707365228070113761e-01
1.495623176323467973e+00,1.724769042634530236e-01
1.500625260525218829e+00,1.742175905493532628e-01
1.505627344726969463e+00,1.759582332838297014e-01
1.510629428928720319e+00,1.776984841208630594e-01
1.515631513130470953e+00,1.794379950280853286e-01
1.520633597332221809e+00,1.811764185650365788e-01
1.525635681533972443e+00,1.829134081604146256e-01
1.530637765735723077e+00,1.846486183878503218e-01
1.535639849937473933e+00,1.863817052397422624e-01
1.540641934139224567e+00,1.881123263986909100e-01
1.545644018340975423e+00,1.898401415060812225e-01
1.550646102542726057e+00,1.915648124273671427e-01
1.555648186744476913e+00,1.932860035136252375e-01
1.560650270946227547e+00,1.950033818589514412e-01
1.565652355147978181e+00,1.967166175532901462e-01
1.570654439349729037e+00,1.984253839302953237e-01
1.575656523551479671e+00,2.001293578098384263e-01
1.580658607753230527e+00,2.018282197347940066e-01
1.585660691954981161e+00,2.035216542017464214e-01
1.590662776156732017e+00,2.052093498852831377e-01
1.595664860358482651e+00,2.068909998555517882e-01
1.600666944560233507e+00,2.085663017887820214e-01
1.605669028761984141e+00,2.102349581704874293e-01
1.610671112963734775e+00,2.118966764910866774e-01
1.615673197165485631e+00,2.135511694336992006e-01
1.620675281367236265e+00,2.151981550538935861e-01
1.625677365568987121e+00,2.168373569511879706e-01
1.630679449770737754e+00,2.184685044321195702e-01
1.635681533972488610e+00,2.200913326647267187e-01
1.640683618174239244e+00,2.217055828243026105e-01
1.645685702375989878e+00,2.233110022303064768e-01
1.650687786577740734e+00,2.249073444743347472e-01
1.655689870779491368e+00,2.264943695390787826e-01
1.660691954981242224e+00,2.280718439082161930e-01
1.665694039182992858e+00,2.296395406672018802e-01
1.670696123384743714e+00,2.311972395949480619e-01
1.675698207586494348e+00,2.327447272463987193e-01
1.680700291788244982e+00,2.342817970260280824e-01
1.685702375989995838e+00,2.358082492523068396e-01
1.690704460191746472e+00,2.373238912132023537e-01
1.695706544393497328e+00,2.388285372127940676e-01
1.700708628595247962e+00,2.403220086091032437e-01
1.705710712796998818e+00,2.418041338432547205e-01
1.710712796998749452e+00,2.432747484600991938e-01
1.715714881200500086e+00,2.447336951204454325e-01
1.720716965402250942e+00,2.461808236050605780e-01
1.725719049604001576e+00,2.476159908106139174e-01
1.730721133805752432e+00,2.490390607377498122e-01
1.735723218007503066e+00,2.504499044714876277e-01
1.740725302209253922e+00,2.518484001541579920e-01
1.745727386411004556e+00,2.532344329510924363e-01
1.750729470612755190e+00,2.546078950092960924e-01
1.755731554814506046e+00,2.559686854093372599e-01
1.760733639016256680e+00,2.573167101106972332e-01
1.765735723218007536e+00,2.586518818908304929e-01
1.770737807419758170e+00,2.599741202781886140e-01
1.775739891621509026e+00,2.612833514794686840e-01
1.780741975823259660e+00,2.625795083013482967e-01
1.785744060025010294e+00,2.638625300669749096e-01
1.790746144226761150e+00,2.651323625274762952e-01
1.795748228428511784e+00,2.663889577687637567e-01
1.800750312630262640e+00,2.676322741138982275e-01
1.805752396832013273e+00,2.688622760212899254e-01
1.810754481033764129e+00,2.700789339790021781e-01
1.815756565235514763e+00,2.712822243954275403e-01
1.820758649437265397e+00,2.724721294866040977e-01
1.825760733639016253e+00,2.736486371604358592e-01
1.830762817840766887e+00,2.748117408980776943e-01
1.835764902042517743e+00,2.759614396327443875e-01
1.840766986244268377e+00,2.770977376261954950e-01
1.845769070446019233e+00,2.782206443431463616e-01
1.850771154647769867e+00,2.793301743238481571e-01
1.855773238849520501e+00,2.804263470550769077e-01
1.860775323051271357e+00,2.815091868397632813e-01
1.865777407253021991e+00,2.825787226654903894e-01
1.870779491454772847e+00,2.836349880720805405e-01
1.875781575656523481e+00,2.846780210184837734e-01
1.880783659858274337e+00,2.857078637491767270e-01
1.885785744060024971e+00,2.867245626602703545e-01
1.890787828261775605e+00,2.877281681655206036e-01
1.895789912463526461e+00,2.887187345624265822e-01
1.900791996665277095e+00,2.896963198985951227e-01
1.905794080867027951e+00,2.906609858385415524e-01
1.910796165068778585e+00,2.916127975310904841e-01
1.915798249270529441e+00,2.925518234775311699e-01
1.920800333472280075e+00,2.934781354006757437e-01
1.925802417674030709e+00,2.943918081149604071e-01
1.930804501875781565e+00,2.952929193977220090e-01
1.935806586077532199e+00,2.961815498617749176e-01
1.940808670279283055e+00,2.970577828294066469e-01
1.945810754481033689e+00,2.979217042079011502e-01
1.950812838682784545e+00,2.987734023666945848e-01
1.955814922884535179e+00,2.996129680162569753e-01
1.960817007086285813e+00,3.004404940887916431e-01
1.965819091288036669e+00,3.012560756208317314e-01
1.970821175489787302e+00,3.020598096378104280e-01
1.975823259691538158e+00,3.028517950406741099e-01
1.980825343893288792e+00,3.036321324945993050e-01
1.985827428095039648e+00,3.044009243198712023e-01
1.990829512296790282e+00,3.051582743849725610e-01
